# dimensionless total [l(l+1)/2pi] C_l's
# for l=2 to 3000, i.e. number of multipoles equal to 2999
#
# -> if you prefer output in CAMB/HealPix/LensPix units/order, set 'format' to 'camb' in input file
# -> if you don't want to see such a header, set 'headers' to 'no' in input file
# -> for CMB lensing (phi), these are C_l^phi-phi for the lensing potential.
#    Remember the conversion factors:
#    C_l^dd (deflection) = l(l+1) C_l^phi-phi
#    C_l^gg (shear/convergence) = 1/4 (l(l+1))^2 C_l^phi-phi
#
# 1:l     2:TT                     3:EE                     4:TE                     5:BB                     6:phiphi                 7:TPhi                   8:Ephi               
    2       1.367845811488e-10       4.159909739610e-15       3.530339841497e-13       0.000000000000e+00       8.223414250886e-09       4.443501021232e-10      -1.841287180818e-12 
    3       1.295976386846e-10       5.346996270447e-15       3.964553689313e-13       0.000000000000e+00       5.057848716868e-09       3.152514640570e-10      -1.396808959939e-12 
    4       1.227580995696e-10       4.640615161162e-15       3.707759138209e-13       0.000000000000e+00       3.514783320713e-09       2.387319920970e-10      -9.170778773709e-13 
    5       1.176308465345e-10       3.106584848023e-15       3.158443467843e-13       0.000000000000e+00       2.623083483214e-09       1.885475145038e-10      -5.124129181705e-13 
    6       1.141214520330e-10       1.741246430519e-15       2.544252912513e-13       0.000000000000e+00       2.049014907730e-09       1.533732613542e-10      -2.134350077194e-13 
    7       1.118429275224e-10       9.395587795075e-16       1.997536223682e-13       0.000000000000e+00       1.653304645847e-09       1.275567794451e-10      -2.191427570011e-14 
    8       1.105273882948e-10       6.028676591065e-16       1.576466211321e-13       0.000000000000e+00       1.366746150499e-09       1.079836995053e-10       7.665393288351e-14 
    9       1.099346729219e-10       4.823983407859e-16       1.293948544517e-13       0.000000000000e+00       1.151165118134e-09       9.280640382280e-11       1.051779689065e-13 
   10       1.098335220281e-10       4.113556143834e-16       1.137161841217e-13       0.000000000000e+00       9.840754887133e-10       8.078952780069e-11       8.919337070256e-14 
   11       1.101732925226e-10       3.459111989136e-16       1.079597027300e-13       0.000000000000e+00       8.273503799804e-10       7.139557146787e-11       5.264072238926e-14 
   12       1.107998314264e-10       3.009572380658e-16       1.090798200623e-13       0.000000000000e+00       7.227809240370e-10       6.311199734755e-11       1.309239646501e-14 
   13       1.116649706353e-10       2.879749542986e-16       1.143822452005e-13       0.000000000000e+00       6.369529474778e-10       5.639597318641e-11      -1.734656943811e-14 
   14       1.127288481311e-10       2.995055256284e-16       1.218057684956e-13       0.000000000000e+00       5.655577897305e-10       5.056088670992e-11      -3.424488022726e-14 
   15       1.139731848949e-10       3.237322240126e-16       1.300566659512e-13       0.000000000000e+00       5.054720213706e-10       4.565179855181e-11      -3.764096553721e-14 
   16       1.153204073837e-10       3.577926593921e-16       1.384533086229e-13       0.000000000000e+00       4.543925945932e-10       4.141738801469e-11      -3.133504757645e-14 
   17       1.168043690910e-10       4.071113554631e-16       1.467920855385e-13       0.000000000000e+00       4.105826349653e-10       3.771978921100e-11      -2.044773517291e-14 
   18       1.183604254719e-10       4.772606617468e-16       1.553140985748e-13       0.000000000000e+00       3.725629919491e-10       3.450335641537e-11      -9.869046709839e-15 
   19       1.200000690311e-10       5.686832714767e-16       1.642224441233e-13       0.000000000000e+00       3.397310507937e-10       3.171807490905e-11      -2.266634318391e-15 
   20       1.217177221781e-10       6.794693550258e-16       1.736482088826e-13       0.000000000000e+00       3.108179234903e-10       2.924128453879e-11       5.485979460497e-16 
   21       1.235133212514e-10       8.089620751587e-16       1.835757368902e-13       0.000000000000e+00       2.853685548187e-10       2.702772373495e-11      -9.316712950963e-16 
   22       1.253587183073e-10       9.566257901815e-16       1.938601468733e-13       0.000000000000e+00       2.627738696646e-10       2.502570679659e-11      -5.023971433302e-15 
   23       1.272607752435e-10       1.122695105232e-15       2.041608243196e-13       0.000000000000e+00       2.427227545155e-10       2.323106639967e-11      -9.986640835270e-15 
   24       1.292159665571e-10       1.307444859303e-15       2.140339620846e-13       0.000000000000e+00       2.247510005754e-10       2.163105523595e-11      -1.393508258776e-14 
   25       1.312238886059e-10       1.510888506310e-15       2.231996993117e-13       0.000000000000e+00       2.086466854478e-10       2.020106670282e-11      -1.600063646613e-14 
   26       1.332700081774e-10       1.733189605134e-15       2.314289656604e-13       0.000000000000e+00       1.941177863622e-10       1.889960270372e-11      -1.580319848149e-14 
   27       1.353518120150e-10       1.976326010125e-15       2.385994412615e-13       0.000000000000e+00       1.809897601404e-10       1.771313553146e-11      -1.392945608405e-14 
   28       1.374615831502e-10       2.242834531675e-15       2.446521191055e-13       0.000000000000e+00       1.690360652168e-10       1.662885917386e-11      -1.136199805456e-14 
   29       1.396081610664e-10       2.534211676984e-15       2.496470189495e-13       0.000000000000e+00       1.581954977220e-10       1.564400552044e-11      -8.759013980275e-15 
   30       1.417940048776e-10       2.851632238749e-15       2.537196188371e-13       0.000000000000e+00       1.483514457026e-10       1.474947903940e-11      -6.797738817284e-15 
   31       1.440111380174e-10       3.196208156259e-15       2.570107678293e-13       0.000000000000e+00       1.393028457670e-10       1.392781331439e-11      -6.110039764880e-15 
   32       1.462628084250e-10       3.568854304841e-15       2.594787238226e-13       0.000000000000e+00       1.310028604001e-10       1.317154750648e-11      -6.540412425163e-15 
   33       1.485472846944e-10       3.970358765850e-15       2.610160588803e-13       0.000000000000e+00       1.233927043470e-10       1.247006752710e-11      -7.597793088411e-15 
   34       1.508558225273e-10       4.401457709291e-15       2.614980665768e-13       0.000000000000e+00       1.163657563062e-10       1.180943688219e-11      -8.726969104706e-15 
   35       1.531899666963e-10       4.863006315222e-15       2.607881361787e-13       0.000000000000e+00       1.098859675779e-10       1.119126589696e-11      -9.628459832166e-15 
   36       1.555485582716e-10       5.355858790547e-15       2.587316338870e-13       0.000000000000e+00       1.039012583424e-10       1.061969583820e-11      -1.004141927304e-14 
   37       1.579263210782e-10       5.880822815726e-15       2.551867400836e-13       0.000000000000e+00       9.833362920098e-11       1.009596994486e-11      -9.749662567603e-15 
   38       1.603277256676e-10       6.438671278773e-15       2.501402901643e-13       0.000000000000e+00       9.316865975153e-11       9.617894338244e-12      -8.901981485433e-15 
   39       1.627565692557e-10       7.030128044924e-15       2.436308353007e-13       0.000000000000e+00       8.838994070515e-11       9.179672579828e-12      -7.801225268142e-15 
   40       1.652115607972e-10       7.655860146950e-15       2.357193752863e-13       0.000000000000e+00       8.395185198553e-11       8.771647830695e-12      -6.824749111639e-15 
   41       1.676887027112e-10       8.316496075341e-15       2.264649807664e-13       0.000000000000e+00       7.979545015988e-11       8.383267109546e-12      -6.325948927329e-15 
   42       1.701906908602e-10       9.012696587653e-15       2.158388500594e-13       0.000000000000e+00       7.590847581067e-11       8.013889130018e-12      -6.288730104302e-15 
   43       1.727196487365e-10       9.745100803981e-15       2.037845613858e-13       0.000000000000e+00       7.228059212659e-11       7.664966495548e-12      -6.568667980529e-15 
   44       1.752741176149e-10       1.051430415078e-14       1.902409909728e-13       0.000000000000e+00       6.888537844310e-11       7.336984350500e-12      -6.984344034781e-15 
   45       1.778508963359e-10       1.132085224355e-14       1.751486524434e-13       0.000000000000e+00       6.568976307982e-11       7.029621854727e-12      -7.357534201300e-15 
   46       1.804520389333e-10       1.216522542636e-14       1.584719482523e-13       0.000000000000e+00       6.268870173506e-11       6.742502637134e-12      -7.653490151455e-15 
   47       1.830793553840e-10       1.304784594872e-14       1.401828680229e-13       0.000000000000e+00       5.987868873287e-11       6.474518219304e-12      -7.878706565568e-15 
   48       1.857321873147e-10       1.396907920995e-14       1.202547901847e-13       0.000000000000e+00       5.724729785262e-11       6.223525409386e-12      -8.042242101566e-15 
   49       1.884071850697e-10       1.492923137833e-14       9.866245785067e-14       0.000000000000e+00       5.477251901459e-11       5.986272233362e-12      -8.155878733938e-15 
   50       1.911003482402e-10       1.592854365762e-14       7.538026215604e-14       0.000000000000e+00       5.242938484345e-11       5.759325884280e-12      -8.234691562346e-15 
   51       1.938143174222e-10       1.696717877559e-14       5.037659891063e-14       0.000000000000e+00       5.021350974826e-11       5.542325353133e-12      -8.298570909869e-15 
   52       1.965526763728e-10       1.804522671243e-14       2.361793842532e-14       0.000000000000e+00       4.812279368007e-11       5.335483655528e-12      -8.371388808263e-15 
   53       1.993177478850e-10       1.916270525440e-14      -4.929717142823e-15       0.000000000000e+00       4.615037803037e-11       5.138636702530e-12      -8.480799055232e-15 
   54       2.021104773716e-10       2.031955745512e-14      -3.530093756254e-14       0.000000000000e+00       4.428432536980e-11       4.951216385723e-12      -8.658415869595e-15 
   55       2.049310310983e-10       2.151569089586e-14      -6.752514847644e-14       0.000000000000e+00       4.251125986988e-11       4.772505629466e-12      -8.929690509359e-15 
   56       2.077810316117e-10       2.275111270301e-14      -1.016075826614e-13       0.000000000000e+00       4.082908128948e-11       4.602539404383e-12      -9.280186859364e-15 
   57       2.106616737287e-10       2.402582362521e-14      -1.375437784172e-13       0.000000000000e+00       3.923684845269e-11       4.441380401329e-12      -9.681240904169e-15 
   58       2.135729718966e-10       2.533977828279e-14      -1.753248644931e-13       0.000000000000e+00       3.773093295093e-11       4.288841092405e-12      -1.009931087210e-14 
   59       2.165136716217e-10       2.669288425768e-14      -2.149374371139e-13       0.000000000000e+00       3.630485319390e-11       4.144467801750e-12      -1.049575451233e-14 
   60       2.194811608962e-10       2.808500118329e-14      -2.563634370050e-13       0.000000000000e+00       3.494910846066e-11       4.007524776333e-12      -1.082660637201e-14 
   61       2.224727031496e-10       2.951587214215e-14      -2.995833349892e-13       0.000000000000e+00       3.365381636310e-11       3.877203375403e-12      -1.105270040995e-14 
   62       2.254896598750e-10       3.098490192394e-14      -3.445868025469e-13       0.000000000000e+00       3.241769245576e-11       3.753340544778e-12      -1.117319681439e-14 
   63       2.285340629565e-10       3.249132715356e-14      -3.913642290574e-13       0.000000000000e+00       3.124080088921e-11       3.635834079094e-12      -1.119921966180e-14 
   64       2.316073310656e-10       3.403427659393e-14      -4.399036069383e-13       0.000000000000e+00       3.012185338164e-11       3.524423121523e-12      -1.114427907736e-14 
   65       2.347102230197e-10       3.561276808804e-14      -4.901905136505e-13       0.000000000000e+00       2.905813221997e-11       3.418679377408e-12      -1.102437676172e-14 
   66       2.378427911403e-10       3.722570550101e-14      -5.422080937011e-13       0.000000000000e+00       2.804541326105e-11       3.317998327906e-12      -1.085811151784e-14 
   67       2.410043346119e-10       3.887187566211e-14      -5.959370406483e-13       0.000000000000e+00       2.707788893289e-11       3.221590443618e-12      -1.066678477779e-14 
   68       2.441940250812e-10       4.055006630870e-14      -6.513565326978e-13       0.000000000000e+00       2.614971894972e-11       3.128683146974e-12      -1.047030337561e-14 
   69       2.474130349109e-10       4.225945450477e-14      -7.084472998613e-13       0.000000000000e+00       2.526021944650e-11       3.039193860031e-12      -1.027368792911e-14 
   70       2.506627583588e-10       4.399929179443e-14      -7.671891488118e-13       0.000000000000e+00       2.440959180678e-11       2.953178176276e-12      -1.007800771339e-14 
   71       2.539441485729e-10       4.576879019973e-14      -8.275600705578e-13       0.000000000000e+00       2.359735324579e-11       2.870627843004e-12      -9.884339607825e-15 
   72       2.572576881420e-10       4.756712225745e-14      -8.895362468356e-13       0.000000000000e+00       2.282230144118e-11       2.791467364947e-12      -9.693766135550e-15 
   73       2.606033596481e-10       4.939342105583e-14      -9.530920565022e-13       0.000000000000e+00       2.208247916369e-11       2.715550607905e-12      -9.507373502969e-15 
   74       2.639806162171e-10       5.124678027125e-14      -1.018200081928e-12       0.000000000000e+00       2.137513890786e-11       2.642657402378e-12      -9.326249639240e-15 
   75       2.673883520706e-10       5.312625420499e-14      -1.084831115389e-12       0.000000000000e+00       2.069670752273e-11       2.572490147196e-12      -9.151482235775e-15 
   76       2.708254723219e-10       5.503080190894e-14      -1.152953532468e-12       0.000000000000e+00       2.004367305083e-11       2.504752999478e-12      -8.984147058237e-15 
   77       2.742927874179e-10       5.695910771857e-14      -1.222531266210e-12       0.000000000000e+00       1.941551013292e-11       2.439413623842e-12      -8.825274755672e-15 
   78       2.777914122606e-10       5.890972790791e-14      -1.293525473442e-12       0.000000000000e+00       1.881222628453e-11       2.376483225669e-12      -8.675874408901e-15 
   79       2.813221807270e-10       6.088114260551e-14      -1.365895128512e-12       0.000000000000e+00       1.823347082069e-11       2.315936523877e-12      -8.536940596040e-15 
   80       2.848856285081e-10       6.287175468460e-14      -1.439597016700e-12       0.000000000000e+00       1.767851839725e-11       2.257710048056e-12      -8.409451232525e-15 
   81       2.884819759485e-10       6.487988865337e-14      -1.514585727631e-12       0.000000000000e+00       1.714625255220e-11       2.201700435599e-12      -8.294365411138e-15 
   82       2.921111108859e-10       6.690378954517e-14      -1.590813648686e-12       0.000000000000e+00       1.663514924702e-11       2.147762728825e-12      -8.192621242029e-15 
   83       2.957725714904e-10       6.894162180871e-14      -1.668230958421e-12       0.000000000000e+00       1.614326040797e-11       2.095708672120e-12      -8.105133692743e-15 
   84       2.994658344268e-10       7.099153644167e-14      -1.746786457014e-12       0.000000000000e+00       1.566868733281e-11       2.045354055146e-12      -8.032384445543e-15 
   85       3.031912718192e-10       7.305188760958e-14      -1.826430230260e-12       0.000000000000e+00       1.521112713599e-11       1.996673490348e-12      -7.973118078336e-15 
   86       3.069493222054e-10       7.512105006998e-14      -1.907111417187e-12       0.000000000000e+00       1.477055368713e-11       1.949668291459e-12      -7.925424772984e-15 
   87       3.107401874678e-10       7.719735415863e-14      -1.988777419651e-12       0.000000000000e+00       1.434674243526e-11       1.904318843152e-12      -7.887120196283e-15 
   88       3.145638208037e-10       7.927908582665e-14      -2.071373909814e-12       0.000000000000e+00       1.393926218316e-11       1.860583722483e-12      -7.855736483127e-15 
   89       3.184199146968e-10       8.136448667773e-14      -2.154844837630e-12       0.000000000000e+00       1.354746686174e-11       1.818398820321e-12      -7.828513219685e-15 
   90       3.223078888877e-10       8.345175400526e-14      -2.239132438319e-12       0.000000000000e+00       1.317048730438e-11       1.777676462783e-12      -7.802388426574e-15 
   91       3.262268783452e-10       8.553904082953e-14      -2.324177239853e-12       0.000000000000e+00       1.280722302128e-11       1.738304532670e-12      -7.773989542031e-15 
   92       3.301757212366e-10       8.762445593493e-14      -2.409918070430e-12       0.000000000000e+00       1.245633397382e-11       1.700145590900e-12      -7.739624405088e-15 
   93       3.341533128291e-10       8.970609204742e-14      -2.496292799898e-12       0.000000000000e+00       1.211655852128e-11       1.663070686887e-12      -7.696122934411e-15 
   94       3.381597542058e-10       9.178211513423e-14      -2.583240675296e-12       0.000000000000e+00       1.178773982791e-11       1.627068514794e-12      -7.643526554743e-15 
   95       3.421953548800e-10       9.385068866609e-14      -2.670700352043e-12       0.000000000000e+00       1.146993933745e-11       1.592151126400e-12      -7.582788471295e-15 
   96       3.462602753464e-10       9.590994709134e-14      -2.758609208618e-12       0.000000000000e+00       1.116312065750e-11       1.558320307948e-12      -7.514961639801e-15 
   97       3.503545200757e-10       9.795799625940e-14      -2.846903364117e-12       0.000000000000e+00       1.086714581119e-11       1.525567177748e-12      -7.441201427049e-15 
   98       3.544779305083e-10       9.999291384418e-14      -2.935517695806e-12       0.000000000000e+00       1.058177148886e-11       1.493871783781e-12      -7.362768271416e-15 
   99       3.586301780479e-10       1.020127497676e-13      -3.024385856682e-12       0.000000000000e+00       1.030664529970e-11       1.463202701303e-12      -7.281030343400e-15 
  100       3.628107570562e-10       1.040155266229e-13      -3.113440293022e-12       0.000000000000e+00       1.004130202344e-11       1.433516630452e-12      -7.197466206153e-15 
  101       3.670189778460e-10       1.059992400983e-13      -3.202612261938e-12       0.000000000000e+00       9.785159862024e-12       1.404757993847e-12      -7.113667476013e-15 
  102       3.712539596760e-10       1.079618594003e-13      -3.291831848939e-12       0.000000000000e+00       9.537516691261e-12       1.376858534196e-12      -7.031341483038e-15 
  103       3.755146237440e-10       1.099013276771e-13      -3.381027985479e-12       0.000000000000e+00       9.297546312505e-12       1.349736911896e-12      -6.952313931537e-15 
  104       3.797999202449e-10       1.118156135312e-13      -3.470129043310e-12       0.000000000000e+00       9.064485769575e-12       1.323317931372e-12      -6.878139220759e-15 
  105       3.841095595645e-10       1.137028725692e-13      -3.559064671156e-12       0.000000000000e+00       8.838234190825e-12       1.297594044662e-12      -6.808865725905e-15 
  106       3.884433672575e-10       1.155613085660e-13      -3.647764240030e-12       0.000000000000e+00       8.618828230538e-12       1.272571444566e-12      -6.744107908102e-15 
  107       3.928010544245e-10       1.173891252976e-13      -3.736156312200e-12       0.000000000000e+00       8.406256598642e-12       1.248250993385e-12      -6.683422128934e-15 
