# dimensionless total lensed [l(l+1)/2pi] C_l's
# for l=2 to 2500, i.e. number of multipoles equal to 2499
#
# -> if you prefer output in CAMB/HealPix/LensPix units/order, set 'format' to 'camb' in input file
# -> if you don't want to see such a header, set 'headers' to 'no' in input file
# -> for CMB lensing (phi), these are C_l^phi-phi for the lensing potential.
#    Remember the conversion factors:
#    C_l^dd (deflection) = l(l+1) C_l^phi-phi
#    C_l^gg (shear/convergence) = 1/4 (l(l+1))^2 C_l^phi-phi
#
# 1:l     2:TT                     3:EE                     4:TE                     5:BB                     6:phiphi                 7:TPhi                   8:Ephi               
    2       1.367850527074e-10       4.160150315147e-15       3.530339801776e-13       2.405754940622e-19       8.223414250886e-09       4.443501021232e-10      -1.841287180818e-12 
    3       1.295985795097e-10       5.347477515822e-15       3.964553512271e-13       4.812449537567e-19       5.057848716868e-09       3.152514640570e-10      -1.396808959939e-12 
    4       1.227596625805e-10       4.641417445082e-15       3.707758629420e-13       8.022818517074e-19       3.514783320713e-09       2.387319920970e-10      -9.170778773709e-13 
    5       1.176331817666e-10       3.107788661385e-15       3.158442308542e-13       1.203806287238e-18       2.623083483214e-09       1.885475145038e-10      -5.124129181705e-13 
    6       1.141247060603e-10       1.742932413836e-15       2.544250632422e-13       1.685964046001e-18       2.049014907730e-09       1.533732613542e-10      -2.134350077194e-13 
    7       1.118472429674e-10       9.418077481760e-16       1.997532176196e-13       2.248923902290e-18       1.653304645847e-09       1.275567794451e-10      -2.191427570011e-14 
    8       1.105329034374e-10       6.057606260475e-16       1.576459551409e-13       2.892874567436e-18       1.366746150499e-09       1.079836995053e-10       7.665393288351e-14 
    9       1.099415214131e-10       4.860165359449e-16       1.293938209538e-13       3.618021374426e-18       1.151165118134e-09       9.280640382280e-11       1.051779689065e-13 
   10       1.098418327129e-10       4.157805005965e-16       1.137146534825e-13       4.424582795268e-18       9.840754887133e-10       8.078952780069e-11       8.919337070256e-14 
   11       1.101831893705e-10       3.512244836406e-16       1.079575206475e-13       5.312786890643e-18       8.273503799804e-10       7.139557146787e-11       5.264072238926e-14 
   12       1.108114335667e-10       3.072408805211e-16       1.090768065825e-13       6.282867790921e-18       7.227809240370e-10       6.311199734755e-11       1.309239646501e-14 
   13       1.116783924885e-10       2.953111675520e-16       1.143781940345e-13       7.335062303754e-18       6.369529474778e-10       5.639597318641e-11      -1.734656943811e-14 
   14       1.127441996265e-10       3.079767733115e-16       1.218004466236e-13       8.469606736395e-18       5.655577897305e-10       5.056088670992e-11      -3.424488022726e-14 
   15       1.139905717605e-10       3.334212113482e-16       1.300498134923e-13       9.686734010818e-18       5.054720213706e-10       4.565179855181e-11      -3.764096553721e-14 
   16       1.153399314930e-10       3.687823183684e-16       1.384446389469e-13       1.098667113720e-17       4.543925945932e-10       4.141738801469e-11      -3.133504757645e-14 
   17       1.168261288502e-10       4.194848240911e-16       1.467812855936e-13       1.236963709663e-17       4.105826349653e-10       3.771978921100e-11      -2.044773517291e-14 
   18       1.183845162366e-10       4.911012575954e-16       1.553008294155e-13       1.383584099023e-17       3.725629919491e-10       3.450335641537e-11      -9.869046709839e-15 
   19       1.200265834878e-10       5.840744589573e-16       1.642063415487e-13       1.538548171623e-17       3.397310507937e-10       3.171807490905e-11      -2.266634318391e-15 
   20       1.217467507995e-10       6.964947085916e-16       1.736288843381e-13       1.701874524845e-17       3.108179234903e-10       2.924128453879e-11       5.485979460497e-16 
   21       1.235449526027e-10       8.277052366583e-16       1.835527783323e-13       1.873580708986e-17       2.853685548187e-10       2.702772373495e-11      -9.316712950963e-16 
   22       1.253930394380e-10       9.771704221970e-16       1.938331199197e-13       2.053682928891e-17       2.627738696646e-10       2.502570679659e-11      -5.023971433302e-15 
   23       1.272978718863e-10       1.145124841697e-15       2.041292733310e-13       2.242196430005e-17       2.427227545155e-10       2.323106639967e-11      -9.986640835270e-15 
   24       1.292559234118e-10       1.331843251867e-15       2.139974115401e-13       2.439135194815e-17       2.247510005754e-10       2.163105523595e-11      -1.393508258776e-14 
   25       1.312667893822e-10       1.537338972084e-15       2.231576551158e-13       2.644512493942e-17       2.086466854478e-10       2.020106670282e-11      -1.600063646613e-14 
   26       1.333159357421e-10       1.761775368861e-15       2.313809167540e-13       2.858340520014e-17       1.941177863622e-10       1.889960270372e-11      -1.580319848149e-14 
   27       1.354008483170e-10       2.007130050035e-15       2.385448612360e-13       3.080630916863e-17       1.809897601404e-10       1.771313553146e-11      -1.392945608405e-14 
   28       1.375138092127e-10       2.275939521594e-15       2.445904681114e-13       3.311394529603e-17       1.690360652168e-10       1.662885917386e-11      -1.136199805456e-14 
   29       1.396636566732e-10       2.569699943266e-15       2.495777457365e-13       3.550642265429e-17       1.581954977220e-10       1.564400552044e-11      -8.759013980275e-15 
   30       1.418528484614e-10       2.889585701439e-15       2.536421630265e-13       3.798384377665e-17       1.483514457026e-10       1.474947903940e-11      -6.797738817284e-15 
   31       1.440734065390e-10       3.236708270971e-15       2.569245624735e-13       4.054630463435e-17       1.393028457670e-10       1.392781331439e-11      -6.110039764880e-15 
   32       1.463285769418e-10       3.611982033662e-15       2.593831984552e-13       4.319390545932e-17       1.310028604001e-10       1.317154750648e-11      -6.540412425163e-15 
   33       1.486166260811e-10       4.016194526151e-15       2.609106425510e-13       4.592674378769e-17       1.233927043470e-10       1.247006752710e-11      -7.597793088411e-15 
   34       1.509288072340e-10       4.450081320888e-15       2.613821912048e-13       4.874491315751e-17       1.163657563062e-10       1.180943688219e-11      -8.726969104706e-15 
   35       1.532666624507e-10       4.914496975274e-15       2.606612408414e-13       5.164850841583e-17       1.098859675779e-10       1.119126589696e-11      -9.628459832166e-15 
   36       1.556290297709e-10       5.410295027874e-15       2.585931688269e-13       5.463762240025e-17       1.039012583424e-10       1.061969583820e-11      -1.004141927304e-14 
   37       1.580106297587e-10       5.938282441901e-15       2.550361710606e-13       5.771234411206e-17       9.833362920098e-11       1.009596994486e-11      -9.749662567603e-15 
   38       1.604159297905e-10       6.499231357658e-15       2.499771041564e-13       6.087275684828e-17       9.316865975153e-11       9.617894338244e-12      -8.901981485433e-15 
   39       1.628487237426e-10       7.093864848170e-15       2.434545456728e-13       6.411893959590e-17       8.838994070515e-11       9.179672579828e-12      -7.801225268142e-15 
   40       1.653077169560e-10       7.722849103512e-15       2.355295268909e-13       6.745096761930e-17       8.395185198553e-11       8.771647830695e-12      -6.824749111639e-15 
   41       1.677889081433e-10       8.386811717343e-15       2.262611555287e-13       7.086890960749e-17       7.979545015988e-11       8.383267109546e-12      -6.325948927329e-15 
   42       1.702949900324e-10       9.086412485909e-15       2.156206736473e-13       7.437281783749e-17       7.590847581067e-11       8.013889130018e-12      -6.288730104302e-15 
   43       1.728280830710e-10       9.822289509092e-15       2.035517095371e-13       7.796273492155e-17       7.228059212659e-11       7.664966495548e-12      -6.568667980529e-15 
   44       1.753867253905e-10       1.059503713574e-14       1.899931958428e-13       8.163869631940e-17       6.888537844310e-11       7.336984350500e-12      -6.984344034781e-15 
   45       1.779677127985e-10       1.140519982799e-14       1.748857087470e-13       8.540072659042e-17       6.568976307982e-11       7.029621854727e-12      -7.357534201300e-15 
   46       1.805730971231e-10       1.225325664175e-14       1.581937181276e-13       8.924882713523e-17       6.268870173506e-11       6.742502637134e-12      -7.653490151455e-15 
   47       1.832046864504e-10       1.313962844315e-14       1.398892872150e-13       9.318298455770e-17       5.987868873287e-11       6.474518219304e-12      -7.878706565568e-15 
   48       1.858618206400e-10       1.406467916677e-14       1.199458748688e-13       9.720317362322e-17       5.724729785262e-11       6.223525409386e-12      -8.042242101566e-15 
   49       1.885411483999e-10       1.502871343272e-14       9.833831167806e-14       1.013093569146e-16       5.477251901459e-11       5.986272233362e-12      -8.155878733938e-15 
   50       1.912386678832e-10       1.603197079308e-14       7.504108198511e-14       1.055014843638e-16       5.242938484345e-11       5.759325884280e-12      -8.234691562346e-15 
   51       1.939570186545e-10       1.707461215866e-14       5.002267565508e-14       1.097794924969e-16       5.021350974826e-11       5.542325353133e-12      -8.298570909869e-15 
   52       1.966997837053e-10       1.815672556889e-14       2.324966184533e-14       1.141433043894e-16       4.812279368007e-11       5.335483655528e-12      -8.371388808263e-15 
   53       1.994692852819e-10       1.927832675921e-14      -5.311852080224e-15       1.185928294304e-16       4.615037803037e-11       5.138636702530e-12      -8.480799055232e-15 
   54       2.022664684784e-10       2.043935661953e-14      -3.569632417243e-14       1.231279629726e-16       4.428432536980e-11       4.951216385723e-12      -8.658415869595e-15 
   55       2.050914992331e-10       2.163972047125e-14      -6.793306422760e-14       1.277485941063e-16       4.251125986988e-11       4.772505629466e-12      -8.929690509359e-15 
   56       2.079459989561e-10       2.287942314699e-14      -1.020271932343e-13       1.324546320432e-16       4.082908128948e-11       4.602539404383e-12      -9.280186859364e-15 
   57       2.108311611356e-10       2.415846301584e-14      -1.379741353450e-13       1.372459856738e-16       3.923684845269e-11       4.441380401329e-12      -9.681240904169e-15 
   58       2.137469989280e-10       2.547679221248e-14      -1.757649003977e-13       1.421225559851e-16       3.773093295093e-11       4.288841092405e-12      -1.009931087210e-14 
   59       2.166922565847e-10       2.683431572487e-14      -2.153859608887e-13       1.470842360274e-16       3.630485319390e-11       4.144467801750e-12      -1.049575451233e-14 
   60       2.196643208802e-10       2.823089048206e-14      -2.568191289470e-13       1.521309108806e-16       3.494910846066e-11       4.007524776333e-12      -1.082660637201e-14 
   61       2.226604536860e-10       2.966625685437e-14      -3.000447441875e-13       1.572624728654e-16       3.365381636310e-11       3.877203375403e-12      -1.105270040995e-14 
   62       2.256820133722e-10       3.113981725065e-14      -3.450523517530e-13       1.624788712421e-16       3.241769245576e-11       3.753340544778e-12      -1.117319681439e-14 
   63       2.287310280834e-10       3.265080597986e-14      -3.918322136686e-13       1.677800736589e-16       3.124080088921e-11       3.635834079094e-12      -1.119921966180e-14 
   64       2.318089124741e-10       3.419834945711e-14      -4.403721918418e-13       1.731660523324e-16       3.012185338164e-11       3.524423121523e-12      -1.114427907736e-14 
   65       2.349164210558e-10       3.578146314693e-14      -4.906577300870e-13       1.786367844982e-16       2.905813221997e-11       3.418679377408e-12      -1.102437676172e-14 
   66       2.380536015423e-10       3.739904850652e-14      -5.426718361517e-13       1.841922528613e-16       2.804541326105e-11       3.317998327906e-12      -1.085811151784e-14 
   67       2.412197481969e-10       3.904988992900e-14      -5.963950637415e-13       1.898324460459e-16       2.707788893289e-11       3.221590443618e-12      -1.066678477779e-14 
   68       2.444140275455e-10       4.073277282622e-14      -6.518064484069e-13       1.955573672749e-16       2.614971894972e-11       3.128683146974e-12      -1.047030337561e-14 
   69       2.476376070297e-10       4.244687249395e-14      -7.088865755922e-13       2.013670614440e-16       2.526021944650e-11       3.039193860031e-12      -1.027368792911e-14 
   70       2.508918758458e-10       4.419143891181e-14      -7.676151048197e-13       2.072615943677e-16       2.440959180678e-11       2.953178176276e-12      -1.007800771339e-14 
   71       2.541777818114e-10       4.596568261607e-14      -8.279698771391e-13       2.132410456839e-16       2.359735324579e-11       2.870627843004e-12      -9.884339607825e-15 
   72       2.574958019083e-10       4.776877474116e-14      -8.899269215484e-13       2.193055095153e-16       2.282230144118e-11       2.791467364947e-12      -9.693766135550e-15 
   73       2.608459128240e-10       4.959984706107e-14      -9.534604614141e-13       2.254550951297e-16       2.208247916369e-11       2.715550607905e-12      -9.507373502969e-15 
   74       2.642275614951e-10       5.145799203087e-14      -1.018542920892e-12       2.316899276004e-16       2.137513890786e-11       2.642657402378e-12      -9.326249639240e-15 
   75       2.676396356490e-10       5.334226282811e-14      -1.085144931350e-12       2.380101484677e-16       2.069670752273e-11       2.572490147196e-12      -9.151482235775e-15 
   76       2.710810342025e-10       5.525161748680e-14      -1.153234705401e-12       2.444159094148e-16       2.004367305083e-11       2.504752999478e-12      -8.984147058237e-15 
   77       2.745525636571e-10       5.718473944634e-14      -1.222776013036e-12       2.509073505063e-16       1.941551013292e-11       2.439413623842e-12      -8.825274755672e-15 
   78       2.780553356084e-10       5.914018420212e-14      -1.293729846386e-12       2.574846191634e-16       1.881222628453e-11       2.376483225669e-12      -8.675874408901e-15 
   79       2.815901806898e-10       6.111643122283e-14      -1.366055012914e-12       2.641478773051e-16       1.823347082069e-11       2.315936523877e-12      -8.536940596040e-15 
   80       2.851576314160e-10       6.311188284553e-14      -1.439708128880e-12       2.708973018659e-16       1.767851839725e-11       2.257710048056e-12      -8.409451232525e-15 
   81       2.887579050252e-10       6.512486317060e-14      -1.514643612786e-12       2.777330853130e-16       1.714625255220e-11       2.201700435599e-12      -8.294365411138e-15 
   82       2.923908863223e-10       6.715361695685e-14      -1.590813678831e-12       2.846554361635e-16       1.663514924702e-11       2.147762728825e-12      -8.192621242029e-15 
   83       2.960561105225e-10       6.919630851649e-14      -1.668168330366e-12       2.916645795028e-16       1.614326040797e-11       2.095708672120e-12      -8.105133692743e-15 
   84       2.997530513682e-10       7.125108878617e-14      -1.746656195525e-12       2.987607537683e-16       1.566868733281e-11       2.045354055146e-12      -8.032384445543e-15 
   85       3.034820779456e-10       7.331631173591e-14      -1.826227207621e-12       3.059441993588e-16       1.521112713599e-11       1.996673490348e-12      -7.973118078336e-15 
   86       3.072436257692e-10       7.539035197711e-14      -1.906830359167e-12       3.132151690771e-16       1.477055368713e-11       1.949668291459e-12      -7.925424772984e-15 
   87       3.110378937613e-10       7.747153981649e-14      -1.988412906699e-12       3.205739321428e-16       1.434674243526e-11       1.904318843152e-12      -7.887120196283e-15 
   88       3.148648322250e-10       7.955816129704e-14      -2.070920378385e-12       3.280207746470e-16       1.393926218316e-11       1.860583722483e-12      -7.855736483127e-15 
   89       3.187241308183e-10       8.164845823877e-14      -2.154296581631e-12       3.355560000075e-16       1.354746686174e-11       1.818398820321e-12      -7.828513219685e-15 
   90       3.226152065277e-10       8.374062827960e-14      -2.238483610692e-12       3.431799294227e-16       1.317048730438e-11       1.777676462783e-12      -7.802388426574e-15 
   91       3.265371916415e-10       8.583282491618e-14      -2.323421854274e-12       3.508929023274e-16       1.280722302128e-11       1.738304532670e-12      -7.773989542031e-15 
   92       3.304889217240e-10       8.792315754474e-14      -2.409050003147e-12       3.586952768464e-16       1.245633397382e-11       1.700145590900e-12      -7.739624405088e-15 
   93       3.344692888925e-10       9.000971989547e-14      -2.495305796378e-12       3.665874376840e-16       1.211655852128e-11       1.663070686887e-12      -7.696122934411e-15 
   94       3.384783885505e-10       9.209068013899e-14      -2.582128371903e-12       3.745698201583e-16       1.178773982791e-11       1.627068514794e-12      -7.643526554743e-15 
   95       3.425165236900e-10       9.416420447042e-14      -2.669456285195e-12       3.826428906389e-16       1.146993933745e-11       1.592151126400e-12      -7.582788471295e-15 
   96       3.465838480379e-10       9.622843034826e-14      -2.757226819639e-12       3.908071399848e-16       1.116312065750e-11       1.558320307948e-12      -7.514961639801e-15 
   97       3.506803590432e-10       9.828146692491e-14      -2.845376004282e-12       3.990630841008e-16       1.086714581119e-11       1.525567177748e-12      -7.441201427049e-15 
   98       3.548058908659e-10       1.003213954773e-13      -2.933838631577e-12       4.074112644944e-16       1.058177148886e-11       1.493871783781e-12      -7.362768271416e-15 
   99       3.589601073644e-10       1.023462698375e-13      -3.022548275131e-12       4.158522488328e-16       1.030664529970e-11       1.463202701303e-12      -7.281030343400e-15 
  100       3.631424950844e-10       1.043541168232e-13      -3.111437307452e-12       4.243866314995e-16       1.004130202344e-11       1.433516630452e-12      -7.197466206153e-15 
  101       3.673523562460e-10       1.063429366685e-13      -3.200436917693e-12       4.330150341510e-16       9.785159862024e-12       1.404757993847e-12      -7.113667476013e-15 
  102       3.715888017330e-10       1.083107034543e-13      -3.289477129402e-12       4.417381062739e-16       9.537516691261e-12       1.376858534196e-12      -7.031341483038e-15 
  103       3.758507440799e-10       1.102553655392e-13      -3.378486818265e-12       4.505565257412e-16       9.297546312505e-12       1.349736911896e-12      -6.952313931537e-15 
  104       3.801371253306e-10       1.121748971453e-13      -3.467394305303e-12       4.594709799480e-16       9.064485769575e-12       1.323317931372e-12      -6.878139220759e-15 
  105       3.844476507692e-10       1.140674601266e-13      -3.556129189486e-12       4.684821051142e-16       8.838234190825e-12       1.297594044662e-12      -6.808865725905e-15 
  106       3.887821416947e-10       1.159312649580e-13      -3.644620796918e-12       4.775905397824e-16       8.618828230538e-12       1.272571444566e-12      -6.744107908102e-15 
  107       3.931403050244e-10       1.177645225113e-13      -3.732797651271e-12       4.867969438459e-16       8.406256598642e-12       1.248250993385e-12      -6.683422128934e-15 
